toluene,,sample14,,benzonitrile,,sample13,,sample15,,
Wavelength (nm),Abs,Wavelength (nm),Abs,Wavelength (nm),Abs,Wavelength (nm),Abs,Wavelength (nm),Abs,
800,0.04410248995,800,0.001488012611,800,0.04543913528,800,-0.01128979586,800,-0.02418289334,
799,0.04564548656,799,0.003400482936,799,0.04601036757,799,-0.009754360653,799,-0.02625691518,
798,0.04599168897,798,0.006005143281,798,0.0450755395,798,-0.008137624711,798,-0.02749048546,
797,0.04491705075,797,0.003754948266,797,0.04321307316,797,-0.004875897896,797,-0.02583247237,
796,0.04520627856,796,0.003967150114,796,0.04615322128,796,-0.004328443203,796,-0.02960442752,
795,0.04330341145,795,0.006710694171,795,0.01409004256,795,-0.003184282919,795,-0.02678750642,
794,0.04520398006,794,0.009181837551,794,0.02722144499,794,-0.001527378801,794,-0.02787786908,
793,0.04789344966,793,0.01135232206,793,0.01820547506,793,-0.001834489754,793,-0.02292485163,
792,0.04838428646,792,0.009970914572,792,0.05027244985,792,-0.0003212813172,792,-0.02660625055,
791,0.04902170599,791,0.006096201483,791,0.04579866305,791,0.0009446996846,791,-0.02518699504,
790,0.04713815078,790,0.001076195389,790,0.04227377102,790,0.004394139629,790,-0.02552845329,
789,0.01472624205,789,-0.002342306077,789,0.03979383782,789,0.003643365344,789,-0.02414807677,
788,0.02562798932,788,-0.005159470718,788,0.03787590563,788,0.00297736167,788,-0.02177784778,
787,0.01759508066,787,-0.006876447238,787,0.03755843267,787,0.002190133557,787,-0.0213611275,
786,0.04941936582,786,-0.006846839096,786,0.03768746555,786,0.003459892701,786,-0.02011330985,
785,0.04635386541,785,-0.006957718637,785,0.03754262999,785,0.00677707931,785,-0.01700031757,
784,0.04396718368,784,-0.007018344011,784,0.03747935593,784,0.004427324049,784,-0.01562288869,
783,0.04198925197,783,-0.007015694864,783,0.03757206723,783,0.004694279283,783,-0.01413529925,
782,0.04008895904,782,-0.00695833005,782,0.03753390908,782,0.0128172338,782,-0.01181066502,
781,0.03972379863,781,-0.0070428974,781,0.03756763414,781,0.01133574173,781,-0.0105213169,
780,0.03976141289,780,-0.006988490932,780,0.03759447858,780,0.01016036514,780,-0.01171144936,
779,0.03971560299,779,-0.006966328714,779,0.03762564063,779,0.005568098743,779,-0.008743223734,
778,0.0397124812,778,-0.007007085718,778,0.03761485964,778,0.001364493859,778,-0.008542195894,
777,0.03968854249,777,-0.006982326508,777,0.03763250262,777,-0.001503595151,777,-0.005677213427,
776,0.03984788805,776,-0.006956088357,776,0.03774837032,776,-0.003812425071,776,-0.004024425521,
775,0.03984232619,775,-0.006977129728,775,0.03763433546,775,-0.004997056909,775,0.0005756451865,
774,0.0398638919,774,-0.00692500826,774,0.03755310178,774,-0.005028377753,774,-0.0005180315347,
773,0.0398715809,773,-0.006885466632,773,0.03755970299,773,-0.004932156298,773,-0.0003439917928,
772,0.03984096274,772,-0.006937695201,772,0.03765110299,772,-0.005068805069,772,0.001946918201,
771,0.03988525644,771,-0.006963374093,771,0.03759283945,771,-0.005016863346,771,0.001857817522,
770,0.03987949714,770,-0.007031894289,770,0.03763571754,770,-0.005046545062,770,0.003742232453,
769,0.03993179649,769,-0.00697458256,769,0.03768647835,769,-0.005043423269,769,0.002797635272,
768,0.0400368385,768,-0.006881644949,768,0.0377262868,768,-0.005001612008,768,0.004490065388,
767,0.03995892778,767,-0.006967908237,767,0.0375483036,767,-0.005174767692,767,0.005387559067,
766,0.03993029147,766,-0.006938102655,766,0.03761079535,766,-0.005093468819,766,0.004742037505,
765,0.04000104591,765,-0.00693030702,765,0.03767978773,765,-0.005022850819,765,0.006060710642,
764,0.04006928578,764,-0.006940140855,764,0.03775119409,764,-0.005076787435,764,0.005324740428,
763,0.04009250551,763,-0.006874561775,763,0.03772179782,763,-0.005120638292,763,0.01215672307,
762,0.04010653123,762,-0.006968927104,762,0.03769204021,762,-0.005119410343,762,0.01269127801,
761,0.04012035951,761,-0.006935504265,761,0.03767961636,761,-0.005137675907,761,0.01146111917,
760,0.04022607207,760,-0.006826351862,760,0.03776785359,760,-0.005055960733,760,0.007683979813,
759,0.04014639184,759,-0.0069114035,759,0.03771880642,759,-0.005140080582,759,0.003129784949,
758,0.04026486352,758,-0.006893619895,758,0.03773219138,758,-0.005175739527,758,0.0001692495571,
757,0.04027543217,757,-0.006931275129,757,0.03765742853,757,-0.005196918733,757,-0.002326651709,
756,0.0402930975,756,-0.006981256418,756,0.03768808767,756,-0.005201420281,756,-0.003872567322,
755,0.04033331573,755,-0.006868446711,755,0.03779897094,755,-0.005142127164,755,-0.003856095718,
754,0.04030672833,754,-0.006979218684,754,0.0377090089,754,-0.005247049034,754,-0.003963739611,
753,0.04039780051,753,-0.006942993961,753,0.03773444891,753,-0.005207814742,753,-0.003956147004,
752,0.04050670937,752,-0.006893823855,752,0.03780603036,752,-0.005239734426,752,-0.003914025612,
751,0.04051244631,751,-0.006902231369,751,0.03779840842,751,-0.00523768831,751,-0.003978565801,
750,0.04054456204,750,-0.00689005293,750,0.03780998662,750,-0.005240194499,750,-0.003985439893,
749,0.0405314602,749,-0.00681203045,749,0.03779809549,749,-0.005260296632,749,-0.003980361391,
748,0.0406261012,748,-0.006922918838,748,0.03781622648,748,-0.005341154989,748,-0.004067356698,
747,0.04048224166,747,-0.006951451767,747,0.0377269648,747,-0.005234005395,747,-0.004170384724,
746,0.04062939808,746,-0.00689728884,746,0.03781687468,746,-0.005248532165,746,-0.004033145495,
745,0.04055746272,745,-0.006894639228,745,0.03774771839,745,-0.005411363207,745,-0.004164538812,
744,0.04062718153,744,-0.006836442742,744,0.03779950738,744,-0.005282494705,744,-0.004078229889,
743,0.04063263908,743,-0.006947579794,743,0.03776189312,743,-0.005298400763,743,-0.004154539667,
742,0.04075422883,742,-0.006825842429,742,0.03781744093,742,-0.005379865412,742,-0.00409951387,
741,0.04080467299,741,-0.006814120337,741,0.03793818876,741,-0.005367081612,741,-0.004109514412,
740,0.04071735218,740,-0.006900244392,740,0.03780755773,740,-0.005355320405,740,-0.004199765623,
739,0.04079687968,739,-0.00674775755,739,0.03790663555,739,-0.00536145689,739,-0.00425529154,
738,0.04079687968,738,-0.006779614836,738,0.03778663278,738,-0.005379660986,738,-0.004190997686,
737,0.04089234769,737,-0.006819828413,737,0.03783873469,737,-0.005440507084,737,-0.00425483007,
736,0.04076836258,736,-0.006844800897,736,0.03794045001,736,-0.005430332385,736,-0.004256214015,
735,0.04082196206,735,-0.006821663119,735,0.03795872629,735,-0.005439331289,735,-0.004325060174,
734,0.04090071097,734,-0.006761571392,734,0.03796807677,734,-0.005361405667,734,-0.004298199899,
733,0.04084710032,733,-0.006880727597,733,0.03786449507,733,-0.005512999836,733,-0.004440428689,
732,0.04094428569,732,-0.006795058493,732,0.03788985685,732,-0.005485598929,732,-0.004336234648,
731,0.04096482322,731,-0.00678955391,731,0.03799214587,731,-0.005480231252,731,-0.004318089224,
730,0.04103278741,730,-0.006759277545,730,0.0379983075,730,-0.005381604191,730,-0.004319985863,
729,0.04101540521,729,-0.006721352227,729,0.03801969439,729,-0.005495005287,729,-0.004401070531,
728,0.041037485,728,-0.006781959441,728,0.03791228682,728,-0.005484116729,728,-0.004370934796,
727,0.04106377438,727,-0.006772377063,727,0.0380272381,727,-0.005487132818,727,-0.004396202043,
726,0.04102274776,726,-0.006755658425,726,0.0379621163,726,-0.005508756731,726,-0.004454879556,
725,0.04111271352,725,-0.00680153165,725,0.03794559091,725,-0.005514175165,725,-0.004438276403,
724,0.04118670896,724,-0.006766158622,724,0.0379945226,724,-0.005559822079,724,-0.004479629919,
723,0.04117742926,723,-0.006809533108,723,0.03805724531,723,-0.005531351082,723,-0.004516675137,
722,0.04131696373,722,-0.00669203978,722,0.03807434067,722,-0.005477725994,722,-0.004496743903,
721,0.04128212109,721,-0.006800461095,721,0.03795276582,721,-0.005578273442,721,-0.004559967667,
720,0.04141451418,720,-0.00670565106,720,0.03804201633,720,-0.005535593722,720,-0.004468766507,
719,0.04146927595,719,-0.006802347023,719,0.03799579293,719,-0.005721617024,719,-0.004574004561,
718,0.04155962169,718,-0.006712940987,718,0.03811633587,718,-0.005665562581,718,-0.004492132459,
717,0.04161768034,717,-0.006775333546,717,0.03809652478,717,-0.005704704206,717,-0.004553666338,
716,0.04162525758,716,-0.006798575167,716,0.03807637468,716,-0.005663671996,716,-0.004609607626,
715,0.04167509079,715,-0.006777932867,715,0.03822207078,715,-0.005684878211,715,-0.004566832446,
714,0.04169264063,714,-0.006762335543,714,0.03816358745,714,-0.00573551422,714,-0.004555459134,
713,0.04167041555,713,-0.006803009659,713,0.03815756738,713,-0.005809336901,713,-0.004596494138,
712,0.0415767692,712,-0.006818809081,712,0.03820768371,712,-0.005848159082,712,-0.004644644447,
711,0.04167816788,711,-0.00676824851,711,0.03837389499,711,-0.005797229707,711,-0.004624309018,
710,0.04162098467,710,-0.00678634271,710,0.0383572951,710,-0.005781955086,710,-0.004619084299,
709,0.04166634381,709,-0.006722422782,709,0.03842400387,709,-0.005905108992,709,-0.004635885824,
708,0.0416989103,708,-0.006722218823,708,0.03842827305,708,-0.005854441784,708,-0.0046324539,
707,0.04167867824,707,-0.006755556446,707,0.0384051986,707,-0.005859090015,707,-0.004594137426,
706,0.04166309536,706,-0.006728641689,706,0.03837165982,706,-0.005918489769,706,-0.004646898247,
705,0.04167081416,705,-0.006802041084,705,0.03835593909,705,-0.00588044012,705,-0.00468382705,
704,0.0417355001,704,-0.006669709459,704,0.03845983744,704,-0.005848363508,704,-0.004612630233,
703,0.04172786325,703,-0.006723391358,703,0.03832656145,703,-0.005857302342,703,-0.004636398051,
702,0.04171560705,702,-0.006727826316,702,0.03833524138,702,-0.005877171177,702,-0.004698577337,
701,0.04170919582,701,-0.006752447225,701,0.03828101233,701,-0.005941215903,701,-0.004681061488,
700,0.04174632952,700,-0.006765088066,700,0.03828635439,700,-0.005961132236,700,-0.004635168705,
699,0.04174490273,699,-0.006745922379,699,0.0382328704,699,-0.00593054248,699,-0.004630046431,
698,0.04180067778,698,-0.006695302203,698,0.0383204259,698,-0.00590102328,698,-0.004610017408,
697,0.04190964997,697,-0.006679396145,697,0.03828332946,697,-0.005886926781,697,-0.004614320584,
696,0.04187889025,696,-0.006706109736,696,0.03828180209,696,-0.005920430645,696,-0.00460100174,
695,0.04196920991,695,-0.006614389829,695,0.03837295994,695,-0.005892748944,695,-0.004579691216,
694,0.04198112711,694,-0.006635090802,694,0.03832500428,694,-0.005951480474,694,-0.00457118731,
693,0.04201003909,693,-0.006607811898,693,0.03832678497,693,-0.005861950107,693,-0.004561965819,
692,0.04203481972,692,-0.006661399268,692,0.0383647047,692,-0.005921349861,692,-0.004619442858,
691,0.04213843495,691,-0.006559980568,691,0.03839804232,691,-0.00589223858,691,-0.004472558387,
690,0.04203984141,690,-0.006635040045,690,0.03832237422,690,-0.005977166817,690,-0.004561965819,
689,0.0420634523,689,-0.006614950486,689,0.03828078508,689,-0.006045434158,689,-0.004625077825,
688,0.04211610183,688,-0.006673074327,688,0.03832675889,688,-0.006027768366,688,-0.004593010526,
687,0.04214530811,687,-0.006623873487,687,0.0383127071,687,-0.006034303922,687,-0.00460632937,
686,0.04218969494,686,-0.006658340339,686,0.0383801423,686,-0.006055032834,686,-0.004570059944,
685,0.04228438437,685,-0.006520916242,685,0.03839959949,685,-0.006047425326,685,-0.004484497476,
684,0.04223157465,684,-0.006625454407,684,0.03842188418,684,-0.006140950136,684,-0.004564424511,
683,0.04222786427,683,-0.00661387993,683,0.0383313112,683,-0.006056104787,683,-0.004557303619,
682,0.04228909314,682,-0.0065187742,682,0.03841348365,682,-0.006038592663,682,-0.004480962176,
681,0.04225762188,681,-0.006589862984,681,0.03840972111,681,-0.006017862819,681,-0.004476555157,
680,0.04234587774,680,-0.006588231307,680,0.03846817836,680,-0.00609005522,680,-0.004422851373,
679,0.04236182943,679,-0.00650418736,679,0.03846289217,679,-0.006034559105,679,-0.004456570838,
678,0.04238277674,678,-0.006528718863,678,0.03848167136,678,-0.006097202189,678,-0.004423671402,
677,0.04241874069,677,-0.006521528121,677,0.03839201853,677,-0.006117519457,677,-0.004381492734,
676,0.04239682108,676,-0.006603579968,676,0.03848331049,676,-0.006137989461,676,-0.004364681896,
675,0.04244357347,675,-0.006481235847,675,0.03854214773,675,-0.006099754479,675,-0.004202739336,
674,0.04245464876,674,-0.00650857389,674,0.03848421574,674,-0.006105625536,674,-0.004197048023,
673,0.04254854098,673,-0.006351459771,673,0.03865008056,673,-0.006033844315,673,-0.004034581594,
672,0.04256812483,672,-0.006489549764,672,0.0385049209,672,-0.006091637537,672,-0.00412643794,
671,0.0425372906,671,-0.006372428499,671,0.03867192566,671,-0.006043238565,671,-0.003939935006,
670,0.04254579917,670,-0.006392681971,670,0.03861717507,670,-0.006064069457,670,-0.003928340506,
669,0.04264276475,669,-0.006370745134,669,0.03859618306,669,-0.006053245626,669,-0.003954300191,
668,0.04265855998,668,-0.006292731501,668,0.03866224736,668,-0.005995753687,668,-0.003857378615,
667,0.04272021726,667,-0.006280637812,667,0.03872212768,667,-0.006008468103,667,-0.00384388282,
666,0.04272544384,666,-0.006309824996,666,0.03868140653,666,-0.00602204958,666,-0.003771572839,
665,0.04279751331,665,-0.006188623607,665,0.03880847991,665,-0.005995600484,665,-0.003673737869,
664,0.04280505702,664,-0.00617172895,664,0.03882243484,664,-0.005948876031,664,-0.003603607416,
663,0.04283610731,663,-0.006181630772,663,0.03878945857,663,-0.006058402359,663,-0.00366875832,
662,0.04285393655,662,-0.006143910345,662,0.03883095458,662,-0.005961642601,662,-0.003559346544,
661,0.04288773611,661,-0.00607198244,661,0.03893275931,661,-0.005916038528,661,-0.003565251594,
660,0.04293014109,660,-0.006034303922,660,0.03895552456,660,-0.005970936734,660,-0.003529768204,
659,0.04295351729,659,-0.006051765289,659,0.03891050443,659,-0.005992638879,659,-0.003478206927,
658,0.04292931408,658,-0.006019037217,658,0.03893001005,658,-0.005972621962,658,-0.003444616916,
657,0.04299472645,657,-0.006062231492,657,0.03897285089,657,-0.005945403595,657,-0.003436296014,
656,0.04304059967,656,-0.005906028207,656,0.03904370591,656,-0.005825734697,656,-0.003301290562,
655,0.04306295142,655,-0.005867926404,655,0.03913287073,655,-0.005865576677,655,-0.003254481126,
654,0.04312893003,654,-0.005830332171,654,0.03907103464,654,-0.005831609014,654,-0.003267430002,
653,0.04315197095,653,-0.00579498196,653,0.039136976,653,-0.005861643702,653,-0.003229866736,
652,0.04312001169,652,-0.005750024226,652,0.03914944082,652,-0.005787779111,652,-0.003152520396,
651,0.04316523671,651,-0.005787472241,651,0.03918711841,651,-0.005834418349,651,-0.003123274306,
650,0.04324381426,650,-0.005726521835,650,0.03921360895,650,-0.005750126671,650,-0.003062308533,
649,0.04330492765,649,-0.00568554271,649,0.03929416463,649,-0.005783998407,649,-0.003036295064,
648,0.04336839542,648,-0.005592533387,648,0.03930960596,648,-0.00566822011,648,-0.002914741868,
647,0.04332400486,647,-0.005623044446,647,0.03930116445,647,-0.005738171283,647,-0.002919164486,
646,0.04335146397,646,-0.005539427511,646,0.03933125734,646,-0.005682783201,646,-0.002842482878,
645,0.04335772619,645,-0.005526290275,645,0.03933417797,645,-0.005694842432,645,-0.002820417052,
644,0.04335781187,644,-0.005587524734,644,0.03932618722,644,-0.005710324738,644,-0.002843923168,
643,0.04345224425,643,-0.005513766315,643,0.03939514235,643,-0.005686309189,643,-0.002755035879,
642,0.04350443184,642,-0.005484218709,642,0.03942881525,642,-0.005591920111,642,-0.00268352218,
641,0.0435185954,641,-0.005508041009,641,0.03939845785,641,-0.005738171283,641,-0.002717942931,
640,0.04352569208,640,-0.005506507587,640,0.03941350803,640,-0.005638120696,640,-0.002675906988,
639,0.04358332604,639,-0.005469392985,639,0.03947159275,639,-0.005645939615,639,-0.002650333801,
638,0.0435670428,638,-0.005408142228,638,0.03947504982,638,-0.005620693788,638,-0.002642203355,
637,0.04360816628,637,-0.005535338074,637,0.03943729028,637,-0.005734645762,637,-0.002735126531,
636,0.04362745956,636,-0.005456969608,636,0.03943349048,636,-0.005640828982,636,-0.002668754896,
635,0.04370577261,635,-0.005405278876,635,0.03944157064,635,-0.005663876422,635,-0.002642409177,
634,0.04369068891,634,-0.005398222711,634,0.03953753412,634,-0.00559565099,634,-0.002633198164,
633,0.04371722415,633,-0.005417959299,633,0.03947261348,633,-0.005649670027,633,-0.002660727827,
632,0.04376852885,632,-0.005400932394,632,0.03950065002,632,-0.005610165652,632,-0.002630728064,
631,0.04378249869,631,-0.005390041508,631,0.0394529961,631,-0.005640369374,631,-0.002708682092,
630,0.04384154081,630,-0.005255539902,630,0.03957363218,630,-0.005559310783,630,-0.002637520665,
629,0.04381167516,629,-0.005282289814,629,0.03951079771,629,-0.005584611092,629,-0.00265475898,
628,0.04388913885,628,-0.005173744634,628,0.03952492028,628,-0.00554019399,628,-0.0026436958,
627,0.0439032577,627,-0.005047108047,627,0.03953943402,627,-0.005478646606,627,-0.00252651074,
626,0.043948479,626,-0.005105544347,626,0.03958338499,626,-0.005514277611,626,-0.002583280206,
625,0.04398734868,625,-0.005020189565,625,0.03952236846,625,-0.00555333076,625,-0.002596918028,
624,0.0440043658,624,-0.00500519434,624,0.03955746815,624,-0.005509114359,624,-0.002602527617,
623,0.04402937368,623,-0.004999206401,623,0.03946076334,623,-0.005552870687,623,-0.002626611385,
622,0.04407793656,622,-0.004946898203,622,0.03952763975,622,-0.005518929567,622,-0.002518738387,
621,0.04406816512,621,-0.005005399231,621,0.03945719078,621,-0.005550110247,621,-0.00257113413,
620,0.04415504262,620,-0.004992451053,620,0.03956458718,620,-0.005435905419,620,-0.002555900021,
619,0.0441268757,619,-0.005048284773,619,0.03950050846,619,-0.005414124578,619,-0.002626971575,
618,0.04419708252,618,-0.005103190895,618,0.03953886777,618,-0.005360229407,618,-0.002602733439,
617,0.04422947019,617,-0.00514176907,617,0.0395489037,617,-0.005244440399,617,-0.002597895917,
616,0.04427535832,616,-0.005204387475,616,0.03956538066,616,-0.00517348852,616,-0.002667056862,
615,0.04423422739,615,-0.00524009252,615,0.03947987035,615,-0.005019473378,615,-0.002687535482,
614,0.04436623305,614,-0.005231498741,614,0.03960352018,614,-0.004890692886,614,-0.00267518661,
613,0.04435723275,613,-0.005235897843,613,0.03955242038,613,-0.004707693122,613,-0.002712849295,
612,0.04440350831,612,-0.005228327587,612,0.0396094732,612,-0.004537476692,612,-0.002662477316,
611,0.0444313474,611,-0.00510559557,611,0.03967038915,611,-0.004300558008,611,-0.002601240994,
610,0.04449693114,610,-0.005012257025,610,0.03968735039,610,-0.004083871376,610,-0.002547767945,
609,0.04449827969,609,-0.004862177651,609,0.03970978782,609,-0.00381057756,609,-0.002589919139,
608,0.04458406568,608,-0.004830230493,608,0.03976529837,608,-0.003652843647,608,-0.002596454928,
607,0.04453699663,607,-0.004716655705,607,0.03968111053,607,-0.003439069726,607,-0.002528415062,
606,0.04461860657,606,-0.004579896107,606,0.03973874822,606,-0.003268971574,606,-0.002538297558,
605,0.04461587965,605,-0.004386464134,605,0.03977086022,605,-0.003134068334,605,-0.00241454551,
604,0.04466751963,604,-0.0041899723,604,0.03981741518,604,-0.003020974342,604,-0.002434212249,
603,0.044718761,603,-0.00394116668,603,0.03988979757,603,-0.00291998731,603,-0.002306825714,
602,0.04473015293,602,-0.003706283635,602,0.03982368484,602,-0.002898285398,602,-0.002275153529,
601,0.04479225352,601,-0.003427204443,601,0.03982972726,601,-0.002897873987,601,-0.002175435191,
600,0.04480169341,600,-0.003172565019,600,0.03988730162,600,-0.002988891443,600,-0.002175589791,
599,0.04483791441,599,-0.002798710251,599,0.03997862339,599,-0.002914381912,599,-0.002057402395,
598,0.04487545788,598,-0.002519356087,598,0.03993210942,598,-0.003117311746,598,-0.001985206734,
597,0.04497176781,597,-0.002091718139,597,0.04009440914,597,-0.003148716874,597,-0.001744416077,
596,0.04496803507,596,-0.001744776964,596,0.03996959701,596,-0.003318399889,596,-0.001674489118,
595,0.0449995622,595,-0.001366594108,595,0.03999284282,595,-0.003501369152,595,-0.00149843574,
594,0.04502939433,594,-0.00104747992,594,0.03996792436,594,-0.003663008567,594,-0.001296503004,
593,0.04509506747,593,-0.0006980492035,593,0.0400531888,593,-0.003801647807,593,-0.0009560547187,
592,0.04507852718,592,-0.0004264948075,592,0.03994765878,592,-0.003995751031,592,-0.0005706693628,
591,0.04516669735,591,-0.0001856144954,591,0.04006386176,591,-0.00418925425,591,-4.581574831E-5,
590,0.04516933858,590,-4.193324276E-5,590,0.03998631611,590,-0.004307170399,590,0.0006840574206,
589,0.04514906183,589,1.918192538E-5,589,0.04004086927,589,-0.004451190121,589,0.001617464353,
588,0.04526258633,588,0.0001173051642,588,0.03996009007,588,-0.004587170668,588,0.002992922207,
587,0.04526692256,587,-4.348624861E-5,587,0.04005690664,587,-0.004634246696,587,0.004665470216,
586,0.04530930147,586,-0.0002215791319,586,0.04002866521,586,-0.004690126516,586,0.006967403926,
585,0.04532392696,585,-0.0004920722567,585,0.04001379013,585,-0.004744053353,585,0.009769182652,
584,0.04538892582,584,-0.0007254951051,584,0.04008586332,584,-0.004650739953,584,0.01367764734,
583,0.04545566067,583,-0.00100765808,583,0.04010269791,583,-0.004699959885,583,0.01831759699,
582,0.04541671649,582,-0.001266615349,582,0.03997343034,582,-0.004574875813,582,0.02389970049,
581,0.04552743584,581,-0.001492347685,581,0.04010888934,581,-0.004505864345,581,0.0306779854,
580,0.04546307772,580,-0.001756997546,580,0.04001827538,580,-0.004459901713,580,0.03825723752,
579,0.04551269114,579,-0.002006902592,579,0.03996562585,579,-0.004299276508,579,0.04635916278,
578,0.04556469619,578,-0.001975826919,578,0.04003408551,578,-0.00409997534,578,0.05484135076,
577,0.04565175623,577,-0.002088523703,577,0.04005426913,577,-0.003882778343,577,0.06276569515,
576,0.04562780261,576,-0.002028030809,576,0.04003771767,576,-0.003579988377,576,0.06972146034,
575,0.04568430781,575,-0.001959747169,575,0.04007394239,575,-0.003344755853,575,0.07509104908,
574,0.04573236406,574,-0.001837479882,574,0.04011368752,574,-0.002906308044,574,0.07867696136,
573,0.04568450898,573,-0.001662472496,573,0.04002230614,573,-0.002652546391,573,0.08011209965,
572,0.04580234364,572,-0.001264808699,572,0.04006743804,572,-0.002172756474,572,0.07998268306,
571,0.04581514373,571,-0.0009226305992,571,0.04011365771,571,-0.001796492958,571,0.07821347564,
570,0.04588887841,570,-0.0003803571162,570,0.04015937075,570,-0.001284837257,570,0.07527011633,
569,0.04586937279,569,7.217607345E-5,569,0.04010468721,569,-0.0009426750476,569,0.07091740519,
568,0.04595289752,568,0.0008285713848,568,0.04021937028,568,-0.0004846771772,568,0.06572057307,
567,0.04589351267,567,0.001544043887,567,0.04015261307,567,-0.000109069777,567,0.05974148214,
566,0.04599848017,566,0.002574546263,566,0.04017507285,566,0.0003296016366,566,0.0535880588,
565,0.04606936872,565,0.003584295744,565,0.04020065442,565,0.000641876657,565,0.04755716398,
564,0.04601022229,564,0.004807467572,564,0.04016609862,564,0.0009085116326,564,0.04173165187,
563,0.04606280476,563,0.006228085142,563,0.04013253748,563,0.001116030733,563,0.03659750149,
562,0.04608030617,562,0.007731092628,562,0.04022888467,562,0.001295088558,562,0.03221541643,
561,0.04619637504,561,0.009454060346,561,0.04018710926,561,0.001441675937,561,0.02853420191,
560,0.04620127007,560,0.01127423532,560,0.04019693658,560,0.001434299978,560,0.0255779624,
559,0.04630913585,559,0.01317845844,559,0.04024134949,559,0.00152757403,559,0.02351956069,
558,0.04632877931,558,0.01528445538,558,0.04023581371,558,0.001411679317,558,0.02204430662,
557,0.04632843286,557,0.01728974655,557,0.04019477963,557,0.001190027804,557,0.02133503556,
556,0.04636541381,556,0.01937963255,556,0.04022695124,556,0.00103498844,556,0.02115007862,
555,0.0464081578,555,0.02128052525,555,0.04024640471,555,0.0007638673997,555,0.02158018947,
554,0.04647559673,554,0.02311294153,554,0.04025722668,554,0.0005020896206,554,0.02249997668,
553,0.04648980126,553,0.02468501218,553,0.04024677351,553,0.0001772256073,553,0.02381670102,
552,0.04659185931,552,0.02595064975,552,0.04027937725,552,-0.0001234067604,552,0.02549683675,
551,0.04664912447,551,0.02670887671,551,0.04028218985,551,-0.0003961851762,551,0.02748933248,
550,0.04665079713,550,0.02715345845,550,0.04032113031,550,-0.0008318508626,550,0.02975218184,
549,0.04662206024,549,0.02695259452,549,0.04027540237,549,-0.001301922835,549,0.03243878484,
548,0.04670011252,548,0.02654236369,548,0.04032385722,548,-0.001660615788,548,0.03561230749,
547,0.04674957693,547,0.02576533705,547,0.04039879516,547,-0.001972992439,547,0.03927741572,
546,0.04676998779,546,0.02453299612,546,0.04030028358,546,-0.002340812702,546,0.04326488823,
545,0.04681883007,545,0.02320495434,545,0.04032101855,545,-0.002730290405,545,0.04756920785,
544,0.04690227658,544,0.0215919707,544,0.0403117016,544,-0.003105334938,544,0.05181609839,
543,0.04691661149,543,0.01995288953,543,0.04036675021,543,-0.00342622865,543,0.0559004657,
542,0.04702823237,542,0.01830339432,542,0.04039933532,542,-0.003657618072,542,0.05966613069,
541,0.04701568559,541,0.01656385325,541,0.04043288901,541,-0.003939319402,541,0.06274547428,
540,0.04707366601,540,0.01478933729,540,0.04049082473,540,-0.004074844997,540,0.065223746,
539,0.04708754271,539,0.01302948315,539,0.04040044174,539,-0.004286665935,539,0.06699079275,
538,0.0471752882,538,0.01130638178,538,0.04047351703,538,-0.00454357313,538,0.06809685379,
537,0.04720067978,537,0.009739505127,537,0.04049568251,537,-0.004647359252,537,0.06857258081,
536,0.04732949287,536,0.008171322756,536,0.04049710184,536,-0.004866171163,536,0.06817498803,
535,0.04725626484,535,0.006694947369,535,0.04045985267,535,-0.004887672141,535,0.06691655517,
534,0.04738015682,534,0.00549689075,534,0.04055746272,534,-0.004974332638,534,0.06517069042,
533,0.04732409492,533,0.0043419227,533,0.04042069986,533,-0.005100376438,533,0.06265097111,
532,0.04744330049,532,0.003468842711,532,0.04058579728,532,-0.0050676791,532,0.05993926153,
531,0.04749045521,531,0.002686636522,531,0.04052517936,531,-0.005134657491,531,0.05673535541,
530,0.04754824191,530,0.001884985133,530,0.04058204591,530,-0.00522576971,530,0.05320713297,
529,0.04754954204,529,0.001308226143,529,0.04058028385,529,-0.005184845999,529,0.0493077971,
528,0.04759159312,528,0.0007721396396,528,0.04059841856,528,-0.005260399077,528,0.04524095356,
527,0.04764309525,527,0.0003516478755,527,0.04057971761,527,-0.005267099477,527,0.04113311693,
526,0.04767068475,526,-2.774887071E-5,526,0.04059472308,526,-0.005236409605,526,0.03709597141,
525,0.04773277417,525,-0.0003374736407,525,0.0406338349,525,-0.00520372251,525,0.03327662125,
524,0.04782581702,524,-0.0005324067315,524,0.04063045233,524,-0.005256664939,524,0.02967944741,
523,0.04775981605,523,-0.0006141501945,523,0.04064878449,523,-0.005257329904,523,0.02631887048,
522,0.04786685854,522,-0.0007476676255,522,0.04068858176,522,-0.005282238591,522,0.02330982499,
521,0.04799311981,521,-0.0006962917978,521,0.04072997719,521,-0.005183259957,521,0.02061085217,
520,0.0479000099,520,-0.0007784178597,520,0.04067695513,520,-0.005359258037,520,0.01802540757,
519,0.04802345112,519,-0.0006646569818,519,0.04079554603,519,-0.005281880964,519,0.0159922298,
518,0.04805004969,518,-0.0005983817973,518,0.04074737802,518,-0.005392802414,518,0.01406899933,
517,0.04809371382,517,-0.000601587235,517,0.0407939814,517,-0.005364269484,517,0.0124685904,
516,0.0481553413,516,-0.0005101715215,516,0.04074669629,516,-0.005355729256,516,0.01117775496,
515,0.04818981513,515,-0.000490624283,515,0.04080523923,515,-0.005501191132,515,0.01001326926,
514,0.04824503511,514,-0.0004140815581,514,0.04076546058,514,-0.005536718294,514,0.00912309438,
513,0.04831518978,513,-0.0004038921033,513,0.04084101319,513,-0.005529970862,513,0.008450303227,
512,0.04827601835,512,-0.0004108230351,512,0.04079631343,512,-0.005599841941,512,0.007839777507,
511,0.04836457968,511,-0.0004290291399,511,0.04083461687,511,-0.005608530249,511,0.00747329928,
510,0.04835095257,510,-0.0004780577146,510,0.04073566198,510,-0.005741032306,510,0.007152128033,
509,0.0484913066,509,-0.0004217881651,509,0.04091777653,509,-0.005668986589,509,0.00711299805,
508,0.04848870263,508,-0.0005706693628,508,0.04076147825,508,-0.005843408871,508,0.006884999573,
507,0.048588451,507,-0.0006286773132,507,0.04090728238,507,-0.005781291053,507,0.006927817129,
506,0.04860582203,506,-0.0007157264045,506,0.04086763412,506,-0.005886058323,506,0.006954357028,
505,0.04866123945,505,-0.0008353646263,505,0.04095162451,505,-0.005919051357,505,0.006972296629,
504,0.04871941358,504,-0.0009996519657,504,0.04091877118,504,-0.005947190803,504,0.006957434583,
503,0.04881611839,503,-0.001015973976,503,0.04108243808,503,-0.005952246487,503,0.007117445115,
502,0.04880609736,502,-0.001238016295,502,0.0409289822,502,-0.006001676898,502,0.00705571752,
501,0.04885429516,501,-0.001324633718,501,0.0410807617,501,-0.006052377634,501,0.007088343147,
500,0.04889893904,500,-0.001380425179,500,0.04095455632,500,-0.006060444284,500,0.007025988307,
499,0.04906448349,499,-0.001461338368,499,0.04114083201,499,-0.006023326423,499,0.006980582606,
498,0.04905329645,498,-0.001573910704,498,0.04108716175,498,-0.006043851376,498,0.006852967665,
497,0.04907746613,497,-0.001731421682,497,0.04113314673,497,-0.006084388588,497,0.006781838369,
496,0.0491351448,496,-0.001715332735,496,0.04112722725,496,-0.006016228814,496,0.006561319344,
495,0.04919686168,495,-0.00185588398,495,0.04115153104,495,-0.006077598315,495,0.006345639937,
494,0.0492105484,494,-0.00173962058,494,0.04120703042,494,-0.006078211125,494,0.006161757745,
493,0.04934929311,493,-0.001849388471,493,0.04125524685,493,-0.006064631045,493,0.005951367784,
492,0.04932748526,492,-0.00182665349,492,0.04119473323,492,-0.006154936273,492,0.005625838879,
491,0.04941521958,491,-0.001837222022,491,0.04123033956,491,-0.0061174687,491,0.005381190218,
490,0.04945867136,490,-0.001808660571,490,0.04128937796,490,-0.006124666426,490,0.005167013034,
489,0.04952896386,489,-0.00181495049,489,0.04129771888,489,-0.006104451139,489,0.00494490331,
488,0.04957089201,488,-0.001745395828,488,0.04121141136,488,-0.006168870721,488,0.004621252418,
487,0.04959308729,487,-0.001738898689,487,0.04127884656,487,-0.006157284137,487,0.004475680646,
486,0.04967486486,486,-0.001662730356,486,0.04137943313,486,-0.006116294302,486,0.004213747568,
485,0.04971732944,485,-0.001645091688,485,0.04141271859,485,-0.006199443713,485,0.003950326703,
484,0.04977718368,484,-0.001607233076,484,0.04145221785,484,-0.006158509292,484,0.003653415479,
483,0.04985626787,483,-0.001592532382,483,0.04145910963,483,-0.006221236195,483,0.003400874324,
482,0.04990652949,482,-0.001597793773,482,0.04141385853,482,-0.006226237863,482,0.003135286272,
481,0.04996719584,481,-0.001562252408,481,0.04150681198,481,-0.006252009887,481,0.002996884054,
480,0.04996182397,480,-0.001671188395,480,0.04146047682,480,-0.006278443616,480,0.002707422012,
479,0.05004500598,479,-0.00166015164,479,0.04150493443,479,-0.006337530911,479,0.002563245129,
478,0.05011600628,478,-0.001627607038,478,0.04164258018,478,-0.006301252637,478,0.002434864873,
477,0.05017448962,477,-0.001728172996,477,0.04158785194,477,-0.006383039989,477,0.002265901072,
476,0.05021854118,476,-0.00184139784,476,0.04164916277,476,-0.006358857732,476,0.002194166183,
475,0.05030392483,475,-0.001810568152,475,0.04167685658,475,-0.006317988969,475,0.002159512835,
474,0.05036499724,474,-0.001834489754,474,0.0417512022,474,-0.006326152943,474,0.002159746829,
473,0.05038412288,473,-0.001849233871,473,0.04164747894,473,-0.00639880402,473,0.002108058194,
472,0.0505127199,472,-0.001923050033,472,0.04178884998,472,-0.006404109299,472,0.002146713668,
471,0.0504914932,471,-0.002056371653,471,0.0416485332,471,-0.006487917621,471,0.00197544368,
470,0.05062256381,470,-0.00201298343,470,0.04194292054,470,-0.006368143018,470,0.001994478982,
469,0.05055198073,469,-0.002144423081,469,0.04188906774,469,-0.006441654172,469,0.001844819286,
468,0.05063588545,468,-0.002104289597,468,0.04195059091,468,-0.006453794427,468,0.001774895238,
467,0.05071375892,467,-0.002219888847,467,0.04188328236,467,-0.006391865667,467,0.001665898482,
466,0.05079470202,466,-0.002211596118,466,0.04205526784,466,-0.006475268397,466,0.001566151856,
465,0.0508200191,465,-0.002201860771,465,0.04211053997,465,-0.006409874186,465,0.001445857459,
464,0.05101028457,464,-0.002239719033,464,0.04214833304,464,-0.00644129701,464,0.001320792944,
463,0.05093858391,463,-0.002270518336,463,0.04205121845,463,-0.006519284099,463,0.001159477513,
462,0.05102204531,462,-0.002296783496,462,0.04207488894,462,-0.006492405664,462,0.001020691474,
461,0.05110953748,461,-0.002259548288,461,0.04217642918,461,-0.006472054869,461,0.0008918583626,
460,0.05117686465,460,-0.002359762089,460,0.04219585657,460,-0.006494752131,460,0.0007650602493,
459,0.05116268247,459,-0.002261968795,459,0.04220926389,459,-0.006474860013,459,0.0006665312685,
458,0.05124714598,458,-0.00237850449,458,0.04228301719,458,-0.006549118087,458,0.0005236003781,
457,0.05131335929,457,-0.002302499721,457,0.04233163968,457,-0.006468433421,457,0.000451245578,
456,0.05137063563,456,-0.002304302296,456,0.04239045456,456,-0.006451601163,456,0.0003413370578,
455,0.05138651654,455,-0.00228535058,455,0.04246129841,455,-0.006400844548,455,0.0002589886717,
454,0.05148541927,454,-0.002292303136,454,0.04253235087,454,-0.006412526593,454,0.000209312595,
453,0.05155747011,453,-0.002216540743,453,0.04259233922,453,-0.006279208697,453,0.0001700005378,
452,0.05162028968,452,-0.002293539001,452,0.04260218889,452,-0.006265328731,452,7.240908599E-5,
451,0.05171458423,451,-0.00212376425,451,0.04267711937,451,-0.006106544286,451,5.086890815E-5,
450,0.05179719999,450,-0.002106762724,450,0.04268400371,450,-0.005956893787,450,5.169735596E-5,
449,0.05176383629,449,-0.002071726602,449,0.04275598004,449,-0.005671234801,449,-2.588596146E-7,
448,0.0519149825,448,-0.001966292504,448,0.0427871421,448,-0.005332001019,448,-6.667713751E-5,
447,0.05200531334,447,-0.001789326314,447,0.0428891927,447,-0.004627638962,447,0.0001063525779,
446,0.05201899633,446,-0.001665773219,446,0.04283122346,446,-0.00385943125,446,8.620882727E-5,
445,0.05207858607,445,-0.001303110039,445,0.04295377433,445,-0.002457069932,445,0.0001267562038,
444,0.05213570222,444,-0.0008979354752,444,0.04300107062,444,-0.0007077666232,444,0.0001706479379,
443,0.05231787264,443,-0.0002045545116,443,0.04309651256,443,0.002087092958,443,0.0003657932975,
442,0.05231953785,442,0.0008052042103,442,0.04309182242,442,0.006060894113,442,0.0005034891074,
441,0.05233603343,441,0.002241675975,441,0.04315162823,441,0.01148339268,441,0.0006089540548,
440,0.05235154182,440,0.004459726624,440,0.0432269983,440,0.01916761324,440,0.0008215429261,
439,0.05245241895,439,0.007804749534,439,0.04335732758,439,0.02964280732,439,0.001203811262,
438,0.0525328666,438,0.0127714593,438,0.04336433485,438,0.04340833053,438,0.001564489095,
437,0.05257578567,437,0.02005743794,437,0.04348443076,437,0.06080706045,437,0.001973987324,
436,0.05271529034,436,0.03059601225,436,0.04352763668,436,0.08168197423,436,0.002537258901,
435,0.0528113395,435,0.04592139274,435,0.0436407961,435,0.1054558232,435,0.003321856493,
434,0.05278894678,434,0.06729733944,434,0.04357104748,434,0.1304711103,434,0.004188211169,
433,0.05293717608,433,0.09732719511,433,0.04372354969,433,0.154994458,433,0.005613304209,
432,0.05299054831,432,0.1378327906,432,0.04382364452,432,0.1761955172,432,0.007316343021,
431,0.05304173008,431,0.1903365701,431,0.04391651601,431,0.1917362809,431,0.009617004544,
430,0.05322545022,430,0.2569390237,430,0.04400946572,430,0.2006026357,430,0.01292949263,
429,0.05320283026,429,0.3360656202,429,0.04397597909,429,0.201606676,429,0.01731493324,
428,0.0533651337,428,0.4256016314,428,0.04415343702,428,0.1957355738,428,0.02359589003,
427,0.0533699356,427,0.5189422369,427,0.04417157918,427,0.1836419553,427,0.03236506879,
426,0.05338161439,426,0.6078967452,426,0.04416077584,426,0.1674251854,426,0.04452862218,
425,0.05359215662,425,0.6824179888,425,0.04440155625,425,0.148238048,425,0.06169861555,
424,0.05361857265,424,0.7316241264,424,0.04424580559,424,0.1281676441,424,0.08498392999,
423,0.05358340219,423,0.7487225533,423,0.04436993226,423,0.1082822829,423,0.1166192442,
422,0.0537455827,422,0.7315729856,422,0.04449822381,422,0.08975654095,422,0.1583677232,
421,0.05377455801,421,0.6834461093,421,0.04457784444,421,0.07298021019,421,0.2116515487,
420,0.05384526029,420,0.6132535934,420,0.04456175119,420,0.05831775814,420,0.2768196762,
419,0.05397318676,419,0.5312337875,419,0.04478352889,419,0.04613925889,419,0.3533273339,
418,0.05397726223,418,0.4478945434,418,0.04476191849,418,0.03632917255,418,0.4363589883,
417,0.05400498956,417,0.3680659831,417,0.0448691994,417,0.02837718464,417,0.5222484469,
416,0.05421252176,416,0.2979078889,416,0.04510164261,416,0.0227051191,416,0.6027448773,
415,0.05421736091,415,0.2380918115,415,0.04508002102,415,0.01837408543,415,0.6713342071,
414,0.05426587164,414,0.1887803972,414,0.04512562603,414,0.01545397472,414,0.7250899076,
413,0.05436437577,413,0.1494047791,413,0.04538208619,413,0.01364016812,413,0.7633426189,
412,0.05445149168,412,0.1188105792,412,0.04547192901,412,0.01253711432,412,0.7872234583,
411,0.05454965681,411,0.09593965858,411,0.04559367523,411,0.01187266503,411,0.7997924089,
410,0.05459626764,410,0.07955831289,410,0.04572620988,410,0.01145484671,410,0.8033370376,
409,0.05469725654,409,0.06788112968,409,0.04587800428,409,0.01105657499,409,0.7994705439,
408,0.05477659404,408,0.06045807153,408,0.04600771889,408,0.01067426708,408,0.7892941833,
407,0.0547294952,407,0.05587470531,407,0.04604734853,407,0.009901232086,407,0.7729065418,
406,0.05486314371,406,0.05359669775,406,0.04620639607,406,0.008961444721,406,0.7503374219,
405,0.05493411049,405,0.05277342722,405,0.04639611766,405,0.007750698365,405,0.7211545706,
404,0.05505609885,404,0.05246547237,404,0.04665926844,404,0.006363974884,404,0.6849744916,
403,0.0552188307,403,0.0521886237,403,0.04685420543,403,0.004930398427,403,0.6419195533,
402,0.05517864972,402,0.05144814774,402,0.04695427418,402,0.003322378034,402,0.5937178135,
401,0.05529035628,401,0.04990458488,401,0.04723438993,401,0.001933527179,401,0.5424030423,
400,0.05544173717,400,0.04748147354,400,0.04760672897,400,0.0006215784233,400,0.4902829826,
399,0.05543074012,399,0.04395125806,399,0.04774863645,399,-0.0006711184978,399,0.4401318729,
398,0.0555533357,398,0.03977783769,398,0.04813899845,398,-0.001825570827,398,0.3946508765,
397,0.05554053932,397,0.03533279151,397,0.04844499752,397,-0.002690982772,397,0.3549545705,
396,0.05564848706,396,0.03051652573,396,0.0488409996,396,-0.003517700126,396,0.321128577,
395,0.05581621081,395,0.02609073743,395,0.04929048568,395,-0.004024835769,395,0.293490231,
394,0.05579389632,394,0.02185806632,394,0.04981036484,394,-0.004590705037,394,0.2708974183,
393,0.05591718853,393,0.01836425625,393,0.05022554472,393,-0.004941830877,393,0.2525573373,
392,0.05606015772,392,0.0152665982,392,0.05078940839,392,-0.005340029951,392,0.2373545617,
391,0.05614722893,391,0.01296579,391,0.05154727027,391,-0.005502417684,391,0.2243574113,
390,0.0563307032,390,0.01114649419,390,0.05235746875,390,-0.005745221861,390,0.2126367688,
389,0.05630957335,389,0.009710782208,389,0.05296785384,389,-0.006067694165,389,0.2018049657,
388,0.05647245422,388,0.008700120263,388,0.05391242728,388,-0.006378958933,388,0.1911757588,
387,0.05651134253,387,0.007989434525,387,0.05484795943,387,-0.006594503298,387,0.1806664467,
386,0.05661793426,386,0.007488258183,386,0.05595561117,386,-0.006932549179,386,0.1702792943,
385,0.05676193163,385,0.007166601717,385,0.05709798262,385,-0.007222064305,385,0.1602870226,
384,0.05683589727,384,0.006954225712,384,0.05834567919,384,-0.007634406909,384,0.1503102332,
383,0.05694150925,383,0.006799823139,383,0.05977047235,383,-0.007949735969,383,0.141014576,
382,0.057125438,382,0.006643872708,382,0.06134050339,382,-0.008344375528,382,0.1320365816,
381,0.05707669631,381,0.006566391326,381,0.06300085783,381,-0.008606914431,381,0.1236142218,
380,0.05718865618,380,0.006377897225,380,0.06488829851,380,-0.009176834486,380,0.1158659086,
379,0.05722400546,379,0.00627559144,379,0.06686751544,379,-0.009549597278,379,0.1088797152,
378,0.05743639171,378,0.006364736706,378,0.06925620139,378,-0.009967326187,378,0.1027791351,
377,0.05747255683,377,0.006276878528,377,0.07164044678,377,-0.01044182107,377,0.09715725482,
376,0.05762422457,376,0.006221782416,376,0.07428034395,376,-0.01105204131,376,0.09227214754,
375,0.05764098465,375,0.006318480708,375,0.07709677517,375,-0.01148350537,375,0.08792898804,
374,0.0576682128,374,0.00624730764,374,0.08022063226,374,-0.01231410168,374,0.08434895426,
373,0.05786927789,373,0.006426339503,373,0.0835967958,373,-0.01278966013,373,0.08134833723,
372,0.05802898854,372,0.006616931409,372,0.08716896921,372,-0.01350531075,372,0.0785099417,
371,0.05806147307,371,0.006858042907,371,0.09110269696,371,-0.01439090539,371,0.07599092275,
370,0.05825668573,370,0.007181760389,370,0.09532734752,370,-0.01503356546,370,0.07412434369,
369,0.05834751576,369,0.007560899016,369,0.09971284121,369,-0.01601416245,369,0.07226511091,
368,0.05852200091,368,0.007861074992,368,0.1044581756,368,-0.01698264293,368,0.07076985389,
367,0.05846916139,367,0.008163620718,367,0.1093661413,367,-0.01812602766,367,0.06929843873,
366,0.0585812442,366,0.00847817678,366,0.114573054,366,-0.01941134594,366,0.06787132472,
365,0.05872719735,365,0.008887141943,365,0.1202048585,365,-0.02054312825,365,0.06678204238,
364,0.05881415308,364,0.009217267856,364,0.1260540932,364,-0.02189069055,364,0.06571349502,
363,0.05900412798,363,0.009658081457,363,0.1322809309,363,-0.02315354533,363,0.0646744296,
362,0.0591397211,362,0.01002089866,362,0.1387156546,362,-0.02457651496,362,0.06376367807,
361,0.05921794847,361,0.01028606668,361,0.1453223526,361,-0.02638341114,361,0.06281355023,
360,0.05928690359,360,0.01058542728,360,0.1520857811,360,-0.02819824964,360,0.06195412949,
359,0.05937913433,359,0.01092656236,359,0.1594148129,359,-0.02999461628,359,0.06090036035,
358,0.0595731847,358,0.01116264239,358,0.1668535024,358,-0.03190189227,358,0.0598295033,
357,0.05972184986,357,0.01144238189,357,0.1747936159,357,-0.03398092091,357,0.05890364572,
356,0.05971050262,356,0.01153243426,356,0.1827418953,356,-0.03632979468,356,0.05748437718,
355,0.06004432589,355,0.01170703769,355,0.1911516339,355,-0.03858209774,355,0.05617285892,
354,0.06004013494,354,0.01192885544,354,0.1996893585,354,-0.04111934826,354,0.05448368192,
353,0.06023355946,353,0.01200200338,353,0.2086119652,353,-0.04380963743,353,0.05263246968,
352,0.06050865352,352,0.0120546706,352,0.2176600248,352,-0.04630060494,352,0.05060249567,
351,0.06061710045,351,0.01224039961,351,0.2269402891,351,-0.04935658351,351,0.04841406271,
350,0.06084148213,350,0.01226356532,350,0.2364759892,350,-0.0524286069,350,0.04603770748,
349,0.05761985108,349,0.01120973565,349,0.2563254833,349,-0.04911664128,349,0.05781870708,
348,0.05899914727,348,0.01640451886,348,0.271556437,348,-0.04614514485,348,0.05334763229,
347,0.06125584245,347,0.01403384004,347,0.2767715156,347,-0.05159491301,347,0.0568767041,
346,0.05853065103,346,0.01898592897,346,0.2901328206,346,-0.04538132995,346,0.06053903699,
345,0.05947076157,345,0.01906065457,345,0.3021039963,345,-0.0567876175,345,0.05521186441,
344,0.05853841081,344,0.01754631847,344,0.3131711185,344,-0.05656792596,344,0.05023792386,
343,0.05896133929,343,0.01306802966,343,0.322109282,343,-0.0614830628,343,0.04988971725,
342,0.06029928476,342,0.01581911929,342,0.3345903158,342,-0.0653693676,342,0.04936774075,
341,0.05941302702,341,0.01988128945,341,0.3402125835,341,-0.0695579797,341,0.05283879116,
340,0.05798280612,340,0.01450917404,340,0.347320497,340,-0.06905165315,340,0.04995682836,
339,0.06279778481,339,0.01609816775,339,0.3609169722,339,-0.06816863269,339,0.04645056278,
338,0.05942614749,338,0.01335799601,338,0.3711567521,338,-0.08012060076,338,0.04265581816,
337,0.06503397971,337,0.02346400917,337,0.3848133981,337,-0.07215949148,337,0.04158577323,
336,0.0609337464,336,0.01480805874,336,0.3911997676,336,-0.08053024113,336,0.04161084071,
335,0.06716164947,335,0.02578981221,335,0.4020913243,335,-0.08031247556,335,0.04041305557,
334,0.05842020735,334,0.01529182959,334,0.4066704214,334,-0.08632618934,334,0.03604981676,
333,0.06029443443,333,0.01908883825,333,0.4194957018,333,-0.08734256774,333,0.03076647595,
332,0.06955718249,332,0.02480975538,332,0.4323565662,332,-0.09347162396,332,0.03774057701,
331,0.06460443884,331,0.01720277406,331,0.4385663569,331,-0.0935510993,331,0.02640276402,
330,0.05982323363,330,0.01541516278,330,0.4455533326,330,-0.1034245118,330,0.01733163558,
329,0.06259643286,329,0.02157844976,329,0.4528326392,329,-0.09811425209,329,0.01890580915,
328,0.06290832907,328,0.02302902564,328,0.4649073482,328,-0.1030790359,328,0.01842339896,
327,0.0634636879,327,0.02048185468,327,0.4668948054,327,-0.1053719744,327,0.01183286868,
326,0.06633438915,326,0.02154945023,326,0.4770148098,326,-0.0993135646,326,0.006438346114,
325,0.06290198863,325,0.02069332451,325,0.4856987298,325,-0.1099221259,325,0.007236399222,
324,0.06454229355,324,0.02233051881,324,0.4911666214,324,-0.1150678769,324,0.002815534128,
323,0.06469428539,323,0.02492839098,323,0.4928966165,323,-0.1095053852,323,0.001666937955,
322,0.06737880409,322,0.02430881001,322,0.5054978728,322,-0.1112306714,322,-0.001402461086,
321,0.06290997565,321,0.02270184644,321,0.5070942044,321,-0.1239736751,321,-0.006849030498,
320,0.06492625922,320,0.02299122326,320,0.5142216682,320,-0.1234837621,320,-0.01345070358,
319,0.06858940423,319,0.02680768445,319,0.5255523324,319,-0.1244984791,319,-0.01367445663,
318,0.06783043593,318,0.02795738168,318,0.5296272635,318,-0.1251744181,318,-0.01750941388,
317,0.06489280611,317,0.02587093785,317,0.5362511277,317,-0.1286312938,317,-0.02352358028,
316,0.06405121833,316,0.02456797473,316,0.5429567099,316,-0.1317380071,316,-0.02591285855,
315,0.06761433184,315,0.02695515566,315,0.5497921705,315,-0.1370715648,315,-0.02730738558,
314,0.06743957102,314,0.02458123304,314,0.5545873642,314,-0.1394027919,314,-0.03196018934,
313,0.06621740013,313,0.02191371284,313,0.5554170012,313,-0.1372869015,313,-0.03638645634,
312,0.06880547851,312,0.02709934302,312,0.5653306246,312,-0.1430215687,312,-0.04079700261,
311,0.07099037617,311,0.02581720054,311,0.5747654438,311,-0.1409411728,311,-0.0413316004,
310,0.06984439492,310,0.02652334981,310,0.5787181854,310,-0.152615428,310,-0.05039096996,
309,0.07048057765,309,0.02568851411,309,0.5851300955,309,-0.1553318948,309,-0.04893512651,
308,0.06702920794,308,0.02408224903,308,0.5932466984,308,-0.1527154595,308,-0.05824290216,
307,0.07294753939,307,0.02469561622,307,0.597181201,307,-0.1588058025,307,-0.0590688251,
306,0.07315258682,306,0.02586046979,306,0.6117750406,306,-0.1623815596,306,-0.06151964143,
305,0.07163159549,305,0.02178392,305,0.6193175912,305,-0.1682388633,305,-0.07555215806,
304,0.07312493026,304,0.02542538568,304,0.6307536364,304,-0.1769047379,304,-0.0792741403,
303,0.07454118878,303,0.02365747094,303,0.6434888244,303,-0.1821867377,303,-0.08148996532,
302,0.07708737254,302,0.02502841502,302,0.6625301838,302,-0.1933763623,302,-0.08734028041,
301,0.07726587355,301,0.02308154479,301,0.6776300073,301,-0.2086679041,301,-0.1005473956,
300,0.07363597304,300,0.02369844913,300,0.6965703368,300,-0.2187811285,300,-0.1107400134,

